
time,npos,epos,alt,phi,theta,psi,vel,alpha,beta,p,q,r,nx,ny,nz,mach,qbar,ps,

 0.00000, 0.00000, 0.00000,400.00000, 0.00000,-0.85746, 0.00000,3000.00000,-0.85746, 0.00000, 0.00000, 0.00000, 0.00000,-1.76805,-0.00000, 6.42649, 2.69022,10572.52343,2085.32941,29830.62039, 0.00000,-0.00000,-0.00000,
 0.10000,299.70955,-0.00000,399.94286, 0.00000,-2.73609, 0.00000,2993.80425,-2.48561,-0.00000, 0.00000,-33.45003, 0.00000,-1.78894, 0.00000,-15.36961, 2.68467,10528.91629,2085.33373,28832.04683, 0.00000,-0.00000,-0.00000,
 0.20000,598.50551, 0.00000,394.53177, 0.00000,-7.08155, 0.00000,2981.75451,-4.96793,-0.00000, 0.00000,-52.52394,-0.00000,-1.72775, 0.00000,-43.39000, 2.67381,10445.98092,2085.74265,27896.40387, 0.00000,-0.00000,-0.00000,
 0.30000,894.79354,-0.00000,374.66950, 0.00000,-12.84317,-0.00000,2955.58602,-6.96862,-0.00000, 0.00000,-59.47127,-0.00000,-1.79368, 0.00000,-73.25227, 2.65016,10269.38416,2087.24420,27049.79911, 0.00000,-0.00000,-0.00000,
 0.40000,1185.31801,-0.00000,332.24614, 0.00000,-18.59318,-0.00000,2917.26877,-7.73996,-0.00000, 0.00000,-54.87141,-0.00000,-1.78475, 0.00000,-82.34306, 2.61541,10017.22982,2090.45424,26283.75944, 0.00000,-0.00000,-0.00000,
 0.50000,1466.95962,-0.00000,264.86670, 0.00000,-23.82651,-0.00000,2876.72561,-7.76946,-0.00000, 0.00000,-50.18491, 0.00000,-1.74278, 0.00000,-80.33167, 2.57845,9759.89359,2095.56081,25590.61809, 0.00000,-0.00000,-0.00000,
 0.60000,1737.70273,-0.00000,173.79815, 0.00000,-28.71326,-0.00000,2838.59330,-7.61119,-0.00000, 0.00000,-47.90081,-0.00000,-1.69708, 0.00000,-76.08477, 2.54346,9528.12437,2102.47869,24963.43785, 0.00000,-0.00000,-0.00000,
 0.70000,1996.21854,-0.00000,61.17628, 0.00000,-33.45611,-0.00000,2803.12248,-7.49278,-0.00000, 0.00000,-47.10718,-0.00000,-1.65736, 0.00000,-72.80454, 2.51068,9322.01748,2111.05926,24395.94171, 0.00000,-0.00000,-0.00000,
 0.80000,2241.37664,-0.00001,-71.03929, 0.00000,-38.15090,-0.00000,2769.46863,-7.44188,-0.00000, 0.00000,-46.81885,-0.00000,-1.62321, 0.00000,-70.68231, 2.47938,9134.60522,2121.16864,23882.44996, 0.00000,-0.00000,-0.00000,
 0.90000,2472.08037,-0.00001,-221.14590, 0.00000,-42.82058,-0.00000,2736.99815,-7.42832,-0.00000, 0.00000,-46.56344,-0.00000,-1.59221, 0.00000,-69.18288, 2.44902,8960.68607,2132.69321,23417.82342, 0.00000,-0.00000,-0.00000,
 1.00000,2687.28867,-0.00001,-387.55258, 0.00000,-47.46073,-0.00000,2705.43324,-7.42498,-0.00000, 0.00000,-46.22646,-0.00000,-1.56277, 0.00000,-67.89726, 2.41937,8797.61097,2145.52812,22997.41194, 0.00000,-0.00000,-0.00000,
 1.10000,2886.07362,-0.00002,-568.67783, 0.00000,-52.06404,-0.00000,2674.69639,-7.41968,-0.00000, 0.00000,-45.83487,-0.00000,-1.53427, 0.00000,-66.65669, 2.39036,8644.14038,2159.56892,22617.00789, 0.00000,-0.00000,-0.00000,
 1.20000,3067.65334,-0.00002,-762.91880, 0.00000,-56.62742,-0.00000,2644.77225,-7.41019,-0.00000, 0.00000,-45.43398,-0.00000,-1.50658, 0.00000,-65.43235, 2.36201,8499.49479,2174.70858,22272.80408, 0.00000,-0.00000,-0.00000,
 1.30000,3231.39748,-0.00003,-968.65711, 0.00001,-61.15139,-0.00000,2615.64438,-7.39790,-0.00000, 0.00000,-45.04913,-0.00000,-1.47967, 0.00000,-64.23997, 2.33432,8362.93472,2190.83749,21961.35560, 0.00000,-0.00000,-0.00000,
 1.40000,3376.81948,-0.00004,-1184.27374, 0.00001,-65.63801,-0.00000,2587.28197,-7.38442,-0.00000, 0.00000,-44.68684,-0.00000,-1.45351, 0.00000,-63.09486, 2.30727,8233.67495,2207.84407,21679.54535, 0.00000,-0.00000,-0.00000,
 1.50000,3503.56643,-0.00005,-1408.16171, 0.00001,-70.08944,-0.00001,2559.64496,-7.37066,-0.00000, 0.00000,-44.34487,-0.00000,-1.42803, 0.00000,-62.00186, 2.28085,8110.91772,2225.61541,21424.55290, 0.00000,-0.00000,-0.00000,
 1.60000,3611.41075,-0.00005,-1638.73532, 0.00001,-74.50751,-0.00001,2532.69084,-7.35696,-0.00000, 0.00000,-44.01900,-0.00000,-1.40313, 0.00000,-60.95839, 2.25502,7993.89463,2244.03767,21193.82618, 0.00000,-0.00000,-0.00000,
 1.70000,3700.24381,-0.00006,-1874.43733, 0.00002,-78.89366,-0.00001,2506.37849,-7.34336,-0.00000, 0.00000,-43.70581,-0.00000,-1.37870, 0.00000,-59.95913, 2.22977,7881.88791,2262.99643,20985.05602, 0.00000,-0.00000,-0.00000,
 1.80000,3770.07049,-0.00007,-2113.74529, 0.00003,-83.24902,-0.00002,2480.66925,-7.32988,-0.00000, 0.00000,-43.40297,-0.00000,-1.35465, 0.00000,-58.99865, 2.20507,7774.23485,2282.37701,20796.15296, 0.00000,-0.00000,-0.00000,
 1.90000,3821.00389,-0.00009,-2355.17749, 0.00007,-87.57454,-0.00007,2455.52685,-7.31654,-0.00000, 0.00000,-43.10882,-0.00000,-1.33087, 0.00000,-58.07224, 2.18089,7670.32494,2302.06488,20625.22641, 0.00000,-0.00000,-0.00000,
 2.00000,3853.25979,-0.00010,-2597.29864,-0.00010,-91.87105, 0.00010,2430.91709,-7.30340,-0.00000, 0.00000,-42.82199,-0.00000,-1.30729, 0.00000,-57.17592, 2.15723,7569.59566,2321.94606,20470.56567, 0.00000,-0.00000,-0.00000,
 2.10000,3867.15099,-0.00011,-2838.72527,-0.00003,-96.13916, 0.00003,2406.80759,-7.29053,-0.00000, 0.00000,-42.54120,-0.00000,-1.28383, 0.00000,-56.30624, 2.13406,7471.52928,2341.90769,20330.62284, 0.00000,-0.00000,-0.00000,
 2.20000,3863.08137,-0.00013,-3078.13068,-0.00002,-100.37945, 0.00002,2383.16768,-7.27800,-0.00000, 0.00000,-42.26521,-0.00000,-1.26040, 0.00000,-55.46004, 2.11136,7375.65069,2361.83846,20203.99734, 0.00000,-0.00000,-0.00000,
 2.30000,3841.53963,-0.00014,-3314.24958,-0.00001,-104.59232, 0.00002,2359.96834,-7.26587,-0.00000, 0.00000,-41.99283,-0.00000,-1.23694, 0.00000,-54.63444, 2.08911,7281.52597,2381.62922,20089.42184, 0.00000,-0.00000,-0.00000,
 2.40000,3803.09311,-0.00016,-3545.88225,-0.00001,-108.77810, 0.00001,2337.18225,-7.25420,-0.00000, 0.00000,-41.72295,-0.00000,-1.21338, 0.00000,-53.82675, 2.06729,7188.76123,2401.17353,19985.74965, 0.00000,-0.00000,-0.00000,
 2.50000,3748.38132,-0.00017,-3771.89831,-0.00001,-112.93696, 0.00001,2314.78373,-7.24304,-0.00000, 0.00000,-41.45453,-0.00000,-1.18968, 0.00000,-53.03455, 2.04589,7097.00157,2420.36825,19891.94317, 0.00000,-0.00000,-0.00000,
 2.60000,3678.10941,-0.00019,-3991.24000,-0.00001,-117.06902, 0.00001,2292.74878,-7.23243,-0.00000, 0.00000,-41.18664,-0.00000,-1.16577, 0.00000,-52.25561, 2.02490,7005.92999,2439.11412,19807.06355, 0.00000,-0.00000,-0.00000,
 2.70000,3593.04149,-0.00021,-4202.92509,-0.00001,-121.17428, 0.00001,2271.05502,-7.22241,-0.00000, 0.00000,-40.91841,-0.00000,-1.14162, 0.00000,-51.48794, 2.00429,6915.26634,2457.31634,19730.26130, 0.00000,-0.00000,-0.00000,
 2.80000,3493.99391,-0.00022,-4406.04916,-0.00001,-125.25267, 0.00001,2249.68169,-7.21301,-0.00000, 0.00000,-40.64910,-0.00000,-1.11719, 0.00000,-50.72975, 1.98405,6824.76624,2474.88513,19660.76775, 0.00000,-0.00000,-0.00000,
 2.90000,3381.82839,-0.00024,-4599.78754,-0.00000,-129.30404, 0.00001,2228.60957,-7.20426,-0.00000, 0.00000,-40.37802,-0.00000,-1.09245, 0.00000,-49.97947, 1.96417,6734.21986,2491.73626,19597.88738, 0.00000,-0.00000,-0.00000,
 3.00000,3257.44522,-0.00026,-4783.39663,-0.00000,-133.32819, 0.00001,2207.82102,-7.19619,-0.00000, 0.00000,-40.10460,-0.00000,-1.06737, 0.00000,-49.23575, 1.94463,6643.45073,2507.79152,19540.99088, 0.00000,-0.00000,-0.00000,
 3.10000,3121.77639,-0.00028,-4956.21470,-0.00000,-137.32487, 0.00001,2187.29989,-7.18881,-0.00000, 0.00000,-39.82833,-0.00000,-1.04195, 0.00000,-48.49739, 1.92543,6552.31443,2522.97921,19489.50879, 0.00000,-0.00000,-0.00000,
 3.20000,2975.77883,-0.00030,-5117.66224,-0.00000,-141.29375, 0.00001,2167.03148,-7.18213,-0.00000, 0.00000,-39.54881,-0.00000,-1.01616, 0.00000,-47.76342, 1.90654,6460.69713,2537.23448,19442.92587, 0.00000,-0.00000,-0.00000,
 3.30000,2820.42771,-0.00032,-5267.24172,-0.00000,-145.23451, 0.00001,2147.00250,-7.17616,-0.00000, 0.00000,-39.26569,-0.00000,-0.99001, 0.00000,-47.03299, 1.88796,6368.51410,2550.49967,19400.77590, 0.00000,-0.00000,-0.00000,
 3.40000,2656.70992,-0.00034,-5404.53682,-0.00000,-149.14676, 0.00001,2127.20106,-7.17092,-0.00000, 0.00000,-38.97872,-0.00000,-0.96350, 0.00000,-46.30547, 1.86968,6275.70806,2562.72455,19362.63703, 0.00000,-0.00000,-0.00000,
 3.50000,2485.61772,-0.00036,-5529.21125,-0.00000,-153.03012, 0.00001,2107.61653,-7.16639,-0.00000, 0.00000,-38.68773,-0.00000,-0.93663, 0.00000,-45.58035, 1.85168,6182.24745,2573.86652,19328.12755, 0.00000,-0.00000,-0.00000,
 3.60000,2308.14265,-0.00038,-5641.00696,-0.00000,-156.88417, 0.00001,2088.23960,-7.16257,-0.00000, 0.00000,-38.39260,-0.00000,-0.90943, 0.00000,-44.85726, 1.83397,6088.12458,2583.89069,19296.90209, 0.00000,-0.00000,-0.00000,
 3.70000,2125.26964,-0.00039,-5739.74203,-0.00000,-160.70850, 0.00001,2069.06209,-7.15947,-0.00000, 0.00000,-38.09330,-0.00000,-0.88190, 0.00000,-44.13599, 1.81652,5993.35376,2592.76990,19268.64812, 0.00000,-0.00000,-0.00000,
 3.80000,1937.97158,-0.00041,-5825.30802,-0.00000,-164.50269, 0.00001,2050.07701,-7.15707,-0.00000, 0.00000,-37.78986,-0.00000,-0.85407, 0.00000,-43.41642, 1.79933,5897.96926,2600.48469,19243.08287, 0.00000,-0.00000,-0.00000,
 3.90000,1747.20412,-0.00043,-5897.66698,-0.00000,-168.26633, 0.00001,2031.27842,-7.15535,-0.00000, 0.00000,-37.48236,-0.00000,-0.82598, 0.00000,-42.69857, 1.78239,5802.02330,2607.02312,19219.95048, 0.00000,-0.00000,-0.00000,
 4.00000,1553.90089,-0.00045,-5956.84818,-0.00000,-171.99903, 0.00001,2012.66139,-7.15429,-0.00000, 0.00000,-37.17094,-0.00000,-0.79765, 0.00000,-41.98254, 1.76571,5705.58402,2612.38064,19199.01942, 0.00000,-0.00000,-0.00000,
 4.10000,1358.96917,-0.00047,-6002.94439,-0.00000,-175.70040, 0.00001,1994.22193,-7.15389,-0.00000, 0.00000,-36.85579,-0.00000,-0.76911, 0.00000,-41.26852, 1.74926,5608.73335,2616.55974,19180.08022, 0.00000,-0.00000,-0.00000,
 4.20000,1163.28592,-0.00049,-6036.10806,-0.00000,-179.37007, 0.00001,1975.95694,-7.15412,-0.00000, 0.00000,-36.53715,-0.00000,-0.74040, 0.00000,-40.55680, 1.73304,5511.56501,2619.56971,19162.94332, 0.00000,-0.00000,-0.00000,
 4.30000,967.69435,-0.00051,-6056.54716,-0.00000,-183.00772, 0.00001,1957.86413,-7.15495,-0.00000, 0.00000,-36.21530,-0.00000,-0.71156, 0.00000,-39.84771, 1.71705,5414.18251,2621.42617,19147.43721, 0.00000,-0.00000,-0.00000,
 4.40000,773.00081,-0.00053,-6064.52099,-0.00000,-186.61304, 0.00001,1939.94193,-7.15636,-0.00000, 0.00000,-35.89055,-0.00000,-0.68262, 0.00000,-39.14164, 1.70129,5316.69712,2622.15071,19133.40671, 0.00000,-0.00000,-0.00000,
 4.50000,579.97227,-0.00055,-6060.33575,-0.00000,-190.18575, 0.00001,1922.18946,-7.15832,-0.00000, 0.00000,-35.56324,-0.00000,-0.65364, 0.00000,-38.43904, 1.68575,5219.22606,2621.77040,19120.71138, 0.00000,-0.00000,-0.00000,
 4.60000,389.33415,-0.00056,-6044.34015,-0.00000,-193.72561, 0.00001,1904.60647,-7.16080,-0.00000, 0.00000,-35.23374,-0.00000,-0.62465, 0.00000,-37.74040, 1.67042,5121.89069,2620.31729,19109.22417, 0.00000,-0.00000,-0.00000,
 4.70000,201.76867,-0.00058,-6016.92093,-0.00000,-197.23243, 0.00001,1887.19324,-7.16377,-0.00000, 0.00000,-34.90242,-0.00000,-0.59570, 0.00000,-37.04620, 1.65530,5024.81483,2617.82793,19098.83012, 0.00000,-0.00000,-0.00000,
 4.80000,17.91352,-0.00060,-5978.49847,-0.00000,-200.70605, 0.00001,1869.95055,-7.16719,-0.00000, 0.00000,-34.56970,-0.00000,-0.56682, 0.00000,-36.35698, 1.64039,4928.12321,2614.34279,19089.42519, 0.00000,-0.00000,-0.00000,
 4.90000,-161.63894,-0.00061,-5929.52240, 0.00000,-204.14634, 0.00001,1852.87960,-7.17105,-0.00000, 0.00000,-34.23599,-0.00000,-0.53806, 0.00000,-35.67328, 1.62568,4831.94004,2609.90580,19080.91526, 0.00000,-0.00000,-0.00000,
 5.00000,-336.34216,-0.00063,-5870.46734, 0.00000,-207.55323, 0.00001,1835.98198,-7.17529,-0.00000, 0.00000,-33.90170,-0.00000,-0.50946, 0.00000,-34.99564, 1.61117,4736.38772,2604.56378,19073.21515, 0.00000,-0.00000,-0.00000,
 5.10000,-505.69554,-0.00065,-5801.82878, 0.00000,-210.92668, 0.00001,1819.25958,-7.17990,-0.00000, 0.00000,-33.56726,-0.00000,-0.48105, 0.00000,-34.32459, 1.59687,4641.58572,2598.36592,19066.24781, 0.00000,-0.00000,-0.00000,
 5.20000,-669.24417,-0.00066,-5724.11913, 0.00000,-214.26669, 0.00001,1802.71458,-7.18482,-0.00000, 0.00000,-33.23308,-0.00000,-0.45288, 0.00000,-33.66065, 1.58276,4547.64952,2591.36331,19059.94350, 0.00000,-0.00000,-0.00000,
 5.30000,-826.57831,-0.00067,-5637.86387, 0.00000,-217.57332, 0.00001,1786.34937,-7.19004,-0.00000, 0.00000,-32.89959,-0.00000,-0.42498, 0.00000,-33.00436, 1.56885,4454.68982,2583.60844,19054.23912, 0.00000,-0.00000,-0.00000,
 5.40000,-977.33258,-0.00069,-5543.59804, 0.00000,-220.84664, 0.00001,1770.16653,-7.19551,-0.00000, 0.00000,-32.56718,-0.00000,-0.39738, 0.00000,-32.35619, 1.55513,4362.81173,2575.15476,19049.07759, 0.00000,-0.00000,-0.00000,
 5.50000,-1121.18494,-0.00070,-5441.86283, 0.00000,-224.08680, 0.00001,1754.16875,-7.20120,-0.00000, 0.00000,-32.23627,-0.00000,-0.37012, 0.00000,-31.71662, 1.54161,4272.11428,2566.05624,19044.40724, 0.00000,-0.00000,-0.00000,
 5.60000,-1257.85540,-0.00072,-5333.20246, 0.00000,-227.29396, 0.00001,1738.35886,-7.20707,-0.00000, 0.00000,-31.90724,-0.00000,-0.34322, 0.00000,-31.08610, 1.52828,4182.68986,2556.36700,19040.18133, 0.00000,-0.00000,-0.00000,
 5.70000,-1387.10457,-0.00073,-5218.16127, 0.00000,-230.46833, 0.00001,1722.73970,-7.21310,-0.00000, 0.00000,-31.58047,-0.00000,-0.31671, 0.00000,-30.46506, 1.51514,4094.62396,2546.14091,19036.35757, 0.00000,-0.00000,-0.00000,
 5.80000,-1508.73211,-0.00074,-5097.28110, 0.00000,-233.61014, 0.00001,1707.31419,-7.21924,-0.00000, 0.00000,-31.25630,-0.00000,-0.29062, 0.00000,-29.85388, 1.50219,4007.99488,2535.43133,19032.89769, 0.00000,-0.00000,-0.00000,
 5.90000,-1622.57498,-0.00075,-4971.09881, 0.00000,-236.71968, 0.00001,1692.08521,-7.22547,-0.00000, 0.00000,-30.93509,-0.00000,-0.26498, 0.00000,-29.25291, 1.48943,3922.87361,2524.29072,19029.76706, 0.00000,-0.00000,-0.00000,
 6.00000,-1728.50561,-0.00076,-4840.14416, 0.00000,-239.79727, 0.00001,1677.05565,-7.23176,-0.00000, 0.00000,-30.61715,-0.00000,-0.23979, 0.00000,-28.66249, 1.47685,3839.32382,2512.77050,19026.93435, 0.00000,-0.00000,-0.00000,
 6.10000,-1826.43006,-0.00077,-4704.93787, 0.00000,-242.84323, 0.00001,1662.22832,-7.23807,-0.00000, 0.00000,-30.30278,-0.00000,-0.21508, 0.00000,-28.08291, 1.46447,3757.40187,2500.92072,19024.37121, 0.00000,-0.00000,-0.00000,
 6.20000,-1916.28606,-0.00078,-4565.98987, 0.00000,-245.85795, 0.00001,1647.60598,-7.24438,-0.00000, 0.00000,-29.99228,-0.00000,-0.19087, 0.00000,-27.51442, 1.45227,3677.15693,2488.78994,19022.05198, 0.00000,-0.00000,-0.00000,
 6.30000,-1998.04105,-0.00079,-4423.79785, 0.00000,-248.84183, 0.00001,1633.19130,-7.25066,-0.00000, 0.00000,-29.68589,-0.00000,-0.16716, 0.00000,-26.95727, 1.44027,3598.63115,2476.42506,19019.95346, 0.00000,-0.00000,-0.00000,
 6.40000,-2071.69024,-0.00080,-4278.84596, 0.00001,-251.79528, 0.00001,1618.98684,-7.25688,-0.00000, 0.00000,-29.38388,-0.00000,-0.14398, 0.00000,-26.41163, 1.42844,3521.85991,2463.87116,19018.05463, 0.00000,-0.00000,-0.00000,
 6.50000,-2137.25460,-0.00081,-4131.60373, 0.00001,-254.71875, 0.00001,1604.99504,-7.26301,-0.00000, 0.00000,-29.08646,-0.00000,-0.12132, 0.00000,-25.87767, 1.41681,3446.87203,2451.17144,19016.33651, 0.00000,-0.00000,-0.00000,
 6.60000,-2194.77900,-0.00082,-3982.52519, 0.00001,-257.61273, 0.00001,1591.21823,-7.26903,-0.00000, 0.00000,-28.79382,-0.00000,-0.09920, 0.00000,-25.35554, 1.40537,3373.69015,2438.36710,19014.78188, 0.00000,-0.00000,-0.00000,
 6.70000,-2244.33025,-0.00083,-3832.04815, 0.00001,-260.47769, 0.00001,1577.65859,-7.27493,-0.00000, 0.00000,-28.50617,-0.00000,-0.07763, 0.00000,-24.84532, 1.39411,3302.33099,2425.49733,19013.37520, 0.00000,-0.00000,-0.00000,
 6.80000,-2285.99531,-0.00084,-3680.59364, 0.00002,-263.31413, 0.00002,1564.31813,-7.28067,-0.00000, 0.00000,-28.22365,-0.00000,-0.05660, 0.00000,-24.34709, 1.38304,3232.80572,2412.59926,19012.10238, 0.00000,-0.00000,-0.00000,
 6.90000,-2319.87947,-0.00084,-3528.56547, 0.00003,-266.12259, 0.00003,1551.19875,-7.28624,-0.00000, 0.00000,-27.94642,-0.00000,-0.03612, 0.00000,-23.86091, 1.37215,3165.12033,2399.70795,19010.95069, 0.00000,-0.00000,-0.00000,
 7.00000,-2346.10466,-0.00085,-3376.35004, 0.00010,-268.90360, 0.00010,1538.30216,-7.29162,-0.00000, 0.00000,-27.67459,-0.00000,-0.01619, 0.00000,-23.38680, 1.36146,3099.27599,2386.85641,19009.90859, 0.00000,-0.00000,-0.00000,
 7.10000,-2364.80777,-0.00086,-3224.31611,-0.00007,-271.65769,-0.00006,1525.62993,-7.29679,-0.00000, 0.00000,-27.40829,-0.00000, 0.00319, 0.00000,-22.92475, 1.35095,3035.26941,2374.07559,19008.96567, 0.00000,-0.00000,-0.00000,
 7.20000,-2376.13912,-0.00086,-3072.81479,-0.00003,-274.38544,-0.00002,1513.18343,-7.30174,-0.00000, 0.00000,-27.14759,-0.00000, 0.02203, 0.00000,-22.47475, 1.34062,2973.09322,2361.39443,19008.11247, 0.00000,-0.00000,-0.00000,
 7.30000,-2380.26096,-0.00087,-2922.17962,-0.00002,-277.08740,-0.00001,1500.96392,-7.30646,-0.00000, 0.00000,-26.89259,-0.00000, 0.04031, 0.00000,-22.03674, 1.33049,2912.73631,2348.83992,19007.34047, 0.00000,-0.00000,-0.00000,
 7.40000,-2377.34603,-0.00087,-2772.72668,-0.00001,-279.76415,-0.00001,1488.97244,-7.31093,-0.00000, 0.00000,-26.64333,-0.00000, 0.05806, 0.00000,-21.61068, 1.32054,2854.18421,2336.43712,19006.64193, 0.00000,-0.00000,-0.00000,
 7.50000,-2367.57629,-0.00088,-2624.75484,-0.00001,-282.41626,-0.00001,1477.20989,-7.31514,-0.00000, 0.00000,-26.39986,-0.00000, 0.07527, 0.00000,-21.19647, 1.31077,2797.41942,2324.20926,19006.00987, 0.00000,-0.00000,-0.00000,
 7.60000,-2351.14167,-0.00088,-2478.54604,-0.00001,-285.04432,-0.00000,1465.67700,-7.31909,-0.00000, 0.00000,-26.16222,-0.00000, 0.09195, 0.00000,-20.79402, 1.30120,2742.42171,2312.17778,19005.43795, 0.00000,-0.00000,-0.00000,
 7.70000,-2328.23889,-0.00088,-2334.36563,-0.00001,-287.64890,-0.00000,1454.37435,-7.32276,-0.00000, 0.00000,-25.93042,-0.00000, 0.10810, 0.00000,-20.40324, 1.29181,2689.16848,2300.36238,19004.92046, 0.00000,-0.00000,-0.00000,
 7.80000,-2299.07039,-0.00089,-2192.46275,-0.00001,-290.23060,-0.00000,1443.30234,-7.32616,-0.00000, 0.00000,-25.70448,-0.00000, 0.12374, 0.00000,-20.02398, 1.28260,2637.63500,2288.78116,19004.45222, 0.00000,-0.00000,-0.00000,
 7.90000,-2263.84338,-0.00089,-2053.07081,-0.00000,-292.78999,-0.00000,1432.46120,-7.32928,-0.00000, 0.00000,-25.48438,-0.00000, 0.13887, 0.00000,-19.65612, 1.27358,2587.79474,2277.45063,19004.02853, 0.00000,-0.00000,-0.00000,
 8.00000,-2222.76887,-0.00089,-1916.40787,-0.00000,-295.32767,-0.00000,1421.85104,-7.33211,-0.00000, 0.00000,-25.27011,-0.00000, 0.15350, 0.00000,-19.29952, 1.26475,2539.61959,2266.38584,19003.64517, 0.00000,-0.00000,-0.00000,
 8.10000,-2176.06086,-0.00090,-1782.67719,-0.00000,-297.84421,-0.00000,1411.47179,-7.33465,-0.00000, 0.00000,-25.06165,-0.00000, 0.16763, 0.00000,-18.95402, 1.25610,2493.08015,2255.60041,19003.29828, 0.00000,-0.00000,-0.00000,
 8.20000,-2123.93558,-0.00090,-1652.06773,-0.00000,-300.34019,-0.00000,1401.32323,-7.33691,-0.00000, 0.00000,-24.85896,-0.00000, 0.18128, 0.00000,-18.61946, 1.24763,2448.14589,2245.10664,19002.98441, 0.00000,-0.00000,-0.00000,
 8.30000,-2066.61074,-0.00090,-1524.75463,-0.00000,-302.81619,-0.00000,1391.40500,-7.33888,-0.00000, 0.00000,-24.66201,-0.00000, 0.19446, 0.00000,-18.29568, 1.23935,2404.78542,2234.91561,19002.70041, 0.00000,-0.00000,-0.00000,
 8.40000,-2004.30497,-0.00090,-1400.89976,-0.00000,-305.27278,-0.00000,1381.71659,-7.34057,-0.00000, 0.00000,-24.47073,-0.00000, 0.20717, 0.00000,-17.98249, 1.23125,2362.96665,2225.03718,19002.44343, 0.00000,-0.00000,-0.00000,
 8.50000,-1937.23719,-0.00091,-1280.65226,-0.00000,-307.71052,-0.00000,1372.25736,-7.34199,-0.00000, 0.00000,-24.28508,-0.00000, 0.21942, 0.00000,-17.67973, 1.22333,2322.65697,2215.48015,19002.21091, 0.00000,-0.00000,-0.00000,
 8.60000,-1865.62610,-0.00091,-1164.14903,-0.00000,-310.12998,-0.00000,1363.02653,-7.34313,-0.00000, 0.00000,-24.10499,-0.00000, 0.23123, 0.00000,-17.38722, 1.21560,2283.82341,2206.25227,19002.00051, 0.00000,-0.00000,-0.00000,
 8.70000,-1789.68977,-0.00091,-1051.51530,-0.00000,-312.53170,-0.00000,1354.02317,-7.34400,-0.00000, 0.00000,-23.93040,-0.00000, 0.24261, 0.00000,-17.10475, 1.20804,2246.43278,2197.36033,19001.81014, 0.00000,-0.00000,-0.00000,
